,Time,Force (Newtons),Distance (millimeters)
0,1,0.018984589784509998,9.765625e-05
1,9,0.018984589784509998,9.765625e-05
2,17,0.018984589784509998,9.765625e-05
3,25,0.018984589784509998,9.765625e-05
4,32,0.018984589784509998,9.765625e-05
5,40,0.018984589784509998,0.0001953125
6,48,0.018984589784509998,0.0001953125
7,55,0.018984589784509998,0.0001953125
8,110,0.018711964914509997,0.00048828125
9,127,0.018711964914509997,0.0005859375
10,135,0.018711964914509997,0.0005859375
11,143,0.018711964914509997,0.0006835937500000001
12,150,0.018711964914509997,0.00078125
13,158,0.018711964914509997,0.00078125
14,165,0.018711964914509997,0.0008789062499999999
15,172,0.018711964914509997,0.0008789062499999999
16,180,0.018750210849509997,0.0009765625
17,188,0.018750210849509997,0.00107421875
18,195,0.018750210849509997,0.001171875
19,202,0.018750210849509997,0.001171875
20,209,0.018750210849509997,0.00126953125
21,216,0.018750210849509997,0.0013671875000000001
22,224,0.018750210849509997,0.00146484375
23,231,0.018750210849509997,0.00146484375
24,239,0.018750210849509997,0.0015625
25,246,0.018750210849509997,0.0016601562500000002
26,254,0.018750210849509997,0.0017578124999999998
27,261,0.018750210849509997,0.00185546875
28,268,0.018750210849509997,0.001953125
29,276,0.01906696564451,0.00205078125
30,283,0.019202297414509996,0.0021484375
31,290,0.019202297414509996,0.0022460937500000003
32,297,0.019202297414509996,0.00234375
33,304,0.019202297414509996,0.00244140625
34,311,0.019202297414509996,0.0025390625
35,318,0.019202297414509996,0.00263671875
36,325,0.019202297414509996,0.0027343750000000003
37,333,0.019202297414509996,0.00283203125
38,339,0.019202297414509996,0.0029296875
39,346,0.019202297414509996,0.00302734375
40,352,0.019202297414509996,0.0032226562500000003
41,360,0.019202297414509996,0.0033203125000000003
42,367,0.019202297414509996,0.00341796875
43,374,0.01979265774451,0.0035156249999999997
44,381,0.020045669314509997,0.00361328125
45,388,0.020045669314509997,0.0038085937500000003
46,395,0.020045669314509997,0.00390625
47,403,0.020045669314509997,0.00400390625
48,410,0.020045669314509997,0.00419921875
49,417,0.020045669314509997,0.004296875
50,425,0.020045669314509997,0.0044921875000000005
51,433,0.020045669314509997,0.004589843749999999
52,439,0.020045669314509997,0.00478515625
53,448,0.020045669314509997,0.0048828125
54,454,0.020045669314509997,0.005078125
55,462,0.020045669314509997,0.0052734375
56,470,0.020045669314509997,0.00537109375
57,478,0.021493130854509997,0.005566406249999999
58,485,0.021493130854509997,0.0057617187499999995
59,492,0.021493130854509997,0.005859375
60,499,0.021493130854509997,0.0060546875
61,506,0.021493130854509997,0.00615234375
62,512,0.021493130854509997,0.00634765625
63,564,0.021493130854509997,0.007617187500000001
64,585,0.023372084994510003,0.008105468749999999
65,592,0.023372084994510003,0.00830078125
66,601,0.023372084994510003,0.00859375
67,608,0.023372084994510003,0.0087890625
68,615,0.023372084994510003,0.008984375000000001
69,624,0.023372084994510003,0.009179687499999999
70,632,0.023372084994510003,0.00947265625
71,639,0.023372084994510003,0.00966796875
72,646,0.023372084994510003,0.00986328125
73,654,0.023372084994510003,0.01005859375
74,662,0.023372084994510003,0.010351562500000001
75,670,0.02575510094451,0.010546875
76,678,0.02575510094451,0.0107421875
77,685,0.02575510094451,0.011035156249999999
78,693,0.02575510094451,0.01123046875
79,701,0.02575510094451,0.011523437499999999
80,708,0.02575510094451,0.01171875
81,715,0.02575510094451,0.0119140625
82,722,0.02575510094451,0.01220703125
83,728,0.02575510094451,0.01240234375
84,737,0.02575510094451,0.0126953125
85,744,0.02575510094451,0.012890625000000001
86,751,0.02575510094451,0.01318359375
87,758,0.02575510094451,0.013378906250000001
88,766,0.02887949963451,0.013671875
89,773,0.02887949963451,0.0138671875
90,780,0.02887949963451,0.01416015625
91,788,0.02887949963451,0.01435546875
92,796,0.02887949963451,0.0146484375
93,803,0.02887949963451,0.01494140625
94,810,0.02887949963451,0.015234375000000001
95,818,0.02887949963451,0.0154296875
96,825,0.02887949963451,0.01572265625
97,833,0.02887949963451,0.016015625
98,841,0.02887949963451,0.01630859375
99,849,0.02887949963451,0.0166015625
100,857,0.02887949963451,0.01689453125
101,864,0.03263348525451,0.0171875
102,872,0.03263348525451,0.01748046875
103,879,0.03263348525451,0.0177734375
104,886,0.03263348525451,0.01806640625
105,894,0.03263348525451,0.018359374999999997
106,902,0.03263348525451,0.018652343749999998
107,909,0.03263348525451,0.0189453125
108,916,0.03263348525451,0.01923828125
109,924,0.03263348525451,0.019628906249999998
110,931,0.03263348525451,0.019921875
111,939,0.03263348525451,0.02021484375
112,946,0.03263348525451,0.0205078125
113,953,0.03263348525451,0.020800781249999997
114,961,0.03739069116951,0.02109375
115,968,0.03739069116951,0.021484375
116,977,0.03739069116951,0.021875000000000002
117,1001,0.03739069116951,0.0228515625
118,1008,0.03739069116951,0.023242187499999997
119,1017,0.03739069116951,0.02353515625
120,1025,0.03739069116951,0.02392578125
121,1033,0.03739069116951,0.024316406250000002
122,1041,0.03739069116951,0.024707031249999997
123,1049,0.03739069116951,0.025
124,1057,0.040306208214509996,0.025390625
125,1065,0.04329233313950999,0.025781250000000002
126,1147,0.04671387332451,0.02978515625
127,1155,0.04671387332451,0.03017578125
128,1163,0.05014031683450999,0.030566406249999997
129,1171,0.05014031683450999,0.0310546875
130,1179,0.05014031683450999,0.0314453125
131,1187,0.05014031683450999,0.031835937499999994
132,1194,0.05014031683450999,0.0322265625
133,1202,0.05014031683450999,0.0326171875
134,1209,0.05014031683450999,0.0330078125
135,1217,0.05014031683450999,0.0333984375
136,1224,0.05014031683450999,0.0337890625
137,1232,0.05014031683450999,0.034277343749999994
138,1239,0.05014031683450999,0.03466796875
139,1248,0.05393352905451,0.03515625
140,1255,0.05764730740950999,0.035546875
141,1263,0.05764730740950999,0.035937500000000004
142,1270,0.05764730740950999,0.03642578125
143,1278,0.05764730740950999,0.03681640625
144,1285,0.05764730740950999,0.03720703125
145,1294,0.05764730740950999,0.0376953125
146,1301,0.05764730740950999,0.03818359375
147,1309,0.05764730740950999,0.03857421875
148,1317,0.05764730740950999,0.0390625
149,1325,0.05764730740950999,0.03955078125
150,1335,0.05764730740950999,0.0400390625
151,1344,0.061564083419509995,0.040625
152,1351,0.061564083419509995,0.041015625
153,1358,0.06546713011951,0.04150390625
154,1367,0.06546713011951,0.0419921875
155,1375,0.06546713011951,0.04248046875
156,1383,0.06546713011951,0.04296875
157,1390,0.06546713011951,0.04345703125
158,1398,0.06546713011951,0.0439453125
159,1406,0.06546713011951,0.04443359375
160,1414,0.06546713011951,0.044921875
161,1422,0.06546713011951,0.04541015625
162,1431,0.06546713011951,0.0458984375
163,1439,0.06963789836451,0.04638671875
164,1446,0.06963789836451,0.046875
165,1454,0.07396263101450999,0.04736328125
166,1461,0.07396263101450999,0.0478515625
167,1469,0.07396263101450999,0.04833984375
168,1478,0.07396263101450999,0.048925781249999994
169,1486,0.07396263101450999,0.049414062499999994
170,1493,0.07396263101450999,0.04990234375
171,1501,0.07396263101450999,0.050390625
172,1508,0.07396263101450999,0.05087890625
173,1515,0.07396263101450999,0.051367187499999994
174,1523,0.07396263101450999,0.051953125
175,1530,0.07396263101450999,0.05244140625
176,1538,0.07867276500951,0.0529296875
177,1545,0.07867276500951,0.053417968749999996
178,1553,0.08362904591951,0.053906249999999996
179,1561,0.08362904591951,0.0544921875
180,1568,0.08362904591951,0.05498046875
181,1577,0.08362904591951,0.055566406250000006
182,1585,0.08362904591951,0.056054687500000006
183,1593,0.08362904591951,0.056640625
184,1600,0.08362904591951,0.0572265625
185,1608,0.08362904591951,0.0578125
186,1616,0.08362904591951,0.058300781249999996
187,1623,0.08362904591951,0.058789062499999996
188,1632,0.08899818679450999,0.059375
189,1639,0.08899818679450999,0.0599609375
190,1648,0.09455561534951,0.060546875
191,1700,0.09455561534951,0.064453125
192,1717,0.09455561534951,0.06572265625000001
193,1725,0.10035134549951,0.06630859375
194,1734,0.10035134549951,0.06699218750000001
195,1741,0.10035134549951,0.067578125
196,1750,0.10628240741951,0.06816406250000001
197,1757,0.10628240741951,0.06875
198,1765,0.10628240741951,0.0693359375
199,1773,0.10628240741951,0.069921875
200,1781,0.10628240741951,0.07060546875000001
201,1788,0.10628240741951,0.07119140625
202,1796,0.10628240741951,0.07177734375
203,1803,0.10628240741951,0.07236328125
204,1811,0.10628240741951,0.07294921875
205,1819,0.10628240741951,0.07353515625
206,1827,0.11250178484951,0.07421875
207,1835,0.11250178484951,0.0748046875
208,1843,0.11896142520451,0.07548828125000001
209,1851,0.11896142520451,0.076171875
210,1859,0.11896142520451,0.07675781250000001
211,1867,0.11896142520451,0.07744140625
212,1874,0.11896142520451,0.07802734375
213,1883,0.11896142520451,0.07871093750000001
214,1890,0.11896142520451,0.07939453125000001
215,1899,0.11896142520451,0.080078125
216,1906,0.11896142520451,0.0806640625
217,1914,0.11896142520451,0.08134765625
218,1923,0.12596239263951,0.08212890625
219,1930,0.12596239263951,0.08271484375
220,1939,0.12596239263951,0.08339843749999999
221,1947,0.13327717287451,0.08408203125
222,1954,0.13327717287451,0.084765625
223,1962,0.13327717287451,0.08544921875
224,1971,0.13327717287451,0.08623046875
225,1982,0.13327717287451,0.087109375
226,1990,0.13327717287451,0.087890625
227,1999,0.13327717287451,0.088671875
228,2008,0.13327717287451,0.08935546875
229,2016,0.14124017267451,0.09013671875000001
230,2025,0.14124017267451,0.09091796875000001
231,2033,0.14124017267451,0.09160156250000001
232,2040,0.14945324204951,0.09228515625
233,2049,0.14945324204951,0.09306640625
234,2057,0.14945324204951,0.09375
235,2065,0.14945324204951,0.09443359375
236,2073,0.14945324204951,0.09521484375
237,2081,0.14945324204951,0.0958984375
238,2089,0.14945324204951,0.09658203125
239,2097,0.14945324204951,0.09736328125
240,2104,0.14945324204951,0.09814453125
241,2113,0.15863226644950998,0.09882812499999999
242,2121,0.15863226644950998,0.099609375
243,2130,0.15863226644950998,0.100390625
244,2138,0.16812608431450998,0.101171875
245,2146,0.16812608431450998,0.10185546875
246,2154,0.16812608431450998,0.10273437499999999
247,2162,0.16812608431450998,0.10341796875
248,2170,0.16812608431450998,0.10419921875
249,2179,0.16812608431450998,0.10498046875
250,2187,0.16812608431450998,0.105859375
251,2196,0.16812608431450998,0.106640625
252,2204,0.16812608431450998,0.107421875
253,2212,0.17877904820951002,0.108203125
254,2220,0.17877904820951002,0.10908203125
255,2228,0.17877904820951002,0.109765625
256,2236,0.18973699891950999,0.110546875
257,2245,0.18973699891950999,0.11142578125
258,2254,0.18973699891950999,0.1123046875
259,2262,0.18973699891950999,0.1130859375
260,2271,0.18973699891950999,0.11396484375
261,2278,0.18973699891950999,0.11474609375
262,2287,0.18973699891950999,0.115625
263,2295,0.18973699891950999,0.11640625
264,2304,0.20120587609451,0.11728515625
265,2313,0.20120587609451,0.1181640625
266,2321,0.20120587609451,0.11904296874999999
267,2329,0.20120587609451,0.11982421874999999
268,2337,0.21290619020951002,0.12060546875
269,2346,0.21290619020951002,0.12148437499999999
270,2354,0.21290619020951002,0.12226562499999999
271,2362,0.21290619020951002,0.123046875
272,2370,0.21290619020951002,0.12392578124999999
273,2378,0.21290619020951002,0.12470703124999999
274,2388,0.21290619020951002,0.12568359375
275,2396,0.21290619020951002,0.12646484375
276,2404,0.22539986230951,0.12734374999999998
277,2413,0.22539986230951,0.12822265625
278,2421,0.22539986230951,0.12900390625000002
279,2430,0.23853685064950997,0.1298828125
280,2439,0.23853685064950997,0.13076171875
281,2447,0.23853685064950997,0.131640625
282,2456,0.23853685064950997,0.13251953125
283,2464,0.23853685064950997,0.13330078125
284,2487,0.23853685064950997,0.13564453125
285,2497,0.25316935311451,0.13662109375
286,2505,0.25316935311451,0.13740234375
287,2513,0.25316935311451,0.13818359375
288,2521,0.25316935311451,0.13896484375
289,2529,0.26864032415450995,0.13984375
290,2537,0.26864032415450995,0.140625
291,2546,0.26864032415450995,0.14150390625
292,2555,0.26864032415450995,0.1423828125
293,2564,0.26864032415450995,0.14326171875
294,2572,0.26864032415450995,0.144140625
295,2581,0.26864032415450995,0.14501953125
296,2607,0.28511843814951,0.14755859375
297,2615,0.28511843814951,0.1484375
298,2624,0.28511843814951,0.14921874999999998
299,2632,0.30258898512450993,0.15009765625
300,2640,0.30258898512450993,0.15087890625
301,2648,0.30258898512450993,0.15175781249999998
302,2657,0.30258898512450993,0.1525390625
303,2665,0.30258898512450993,0.15341796875000002
304,2674,0.30258898512450993,0.154296875
305,2684,0.30258898512450993,0.1552734375
306,2692,0.32279166478950994,0.15615234375
307,2754,0.34489781521950996,0.16230468750000002
308,2764,0.34489781521950996,0.16328125
309,2773,0.34489781521950996,0.16416015625
310,2784,0.34489781521950996,0.16523437500000002
311,2793,0.3708746504045099,0.1662109375
312,2801,0.3708746504045099,0.1669921875
313,2811,0.3708746504045099,0.16796875
314,2820,0.3708746504045099,0.16884765624999998
315,2829,0.39902463922951,0.16982421875
316,2838,0.39902463922951,0.170703125
317,2847,0.39902463922951,0.17158203125
318,2855,0.39902463922951,0.1724609375
319,2864,0.39902463922951,0.17324218749999998
320,2889,0.4315925238795099,0.17587890625000002
321,2899,0.4315925238795099,0.1767578125
322,2907,0.4315925238795099,0.17763671875
323,2916,0.4315925238795099,0.17841796875
324,2924,0.46819584500450995,0.179296875
325,2934,0.46819584500450995,0.18027343750000002
326,2942,0.46819584500450995,0.18105468749999998
327,2950,0.46819584500450995,0.18193359374999998
328,2959,0.46819584500450995,0.1828125
329,2968,0.46819584500450995,0.18369140625
330,2979,0.51391542796951,0.18476562500000002
331,2988,0.51391542796951,0.18564453125000002
332,2996,0.51391542796951,0.1865234375
333,3005,0.51391542796951,0.18740234375
334,3013,0.51391542796951,0.18818359375
335,3022,0.56659577110451,0.18916015625000002
336,3031,0.56659577110451,0.19003906250000002
337,3039,0.56659577110451,0.19082031249999998
338,3048,0.56659577110451,0.19169921874999998
339,3056,0.56659577110451,0.192578125
340,3065,0.56659577110451,0.193359375
341,3074,0.6302281809595099,0.19423828125
342,3082,0.6302281809595099,0.1951171875
343,3091,0.6302281809595099,0.19599609375
344,3099,0.6302281809595099,0.19677734375
345,3108,0.6302281809595099,0.19775390625
346,3117,0.70240022163451,0.1986328125
347,3126,0.70240022163451,0.19951171875
348,3135,0.70240022163451,0.200390625
349,3145,0.70240022163451,0.20146484374999998
350,3154,0.70240022163451,0.20234375
351,3162,0.70240022163451,0.203125
352,3171,0.78831334028951,0.20390624999999998
353,3179,0.78831334028951,0.20478515625
354,3189,0.78831334028951,0.20576171875
355,3197,0.78831334028951,0.206640625
356,3206,0.78831334028951,0.20751953125
357,3215,0.8864906554345098,0.2083984375
358,3224,0.8864906554345098,0.20927734375
359,3232,0.8864906554345098,0.21005859375000002
360,3240,0.8864906554345098,0.2109375
361,3250,0.8864906554345098,0.21181640625
362,3258,0.8864906554345098,0.2126953125
363,3267,0.9992926277245098,0.21367187499999998
364,3276,0.9992926277245098,0.21455078125
365,3286,0.9992926277245098,0.21552734375
366,3295,0.9992926277245098,0.21630859375
367,3304,0.9992926277245098,0.21728515625
368,3312,1.1225720248745097,0.2181640625
369,3321,1.1225720248745097,0.21904296875
370,3330,1.1225720248745097,0.219921875
371,3339,1.1225720248745097,0.22080078125
372,3348,1.1225720248745097,0.2216796875
373,3356,1.1225720248745097,0.22255859374999998
374,3366,1.25388993302951,0.22343749999999998
375,3375,1.25388993302951,0.22431640625
376,3383,1.25388993302951,0.2251953125
377,3392,1.25388993302951,0.22607421875
378,3400,1.25388993302951,0.22695312499999998
379,3408,1.25388993302951,0.227734375
380,3417,1.39432214169451,0.22861328125
381,3427,1.39432214169451,0.22958984375000002
382,3435,1.39432214169451,0.23046875
383,3444,1.39432214169451,0.23125
384,3453,1.39432214169451,0.23212890625
385,3461,1.5374403917945099,0.2330078125
386,3470,1.5374403917945099,0.23398437500000002
387,3480,1.5374403917945099,0.23486328125
388,3489,1.5374403917945099,0.23583984375
389,3499,1.5374403917945099,0.23681640625
390,3508,1.6730389026745098,0.23759765624999998
391,3516,1.6730389026745098,0.23847656250000002
392,3524,1.6730389026745098,0.2392578125
393,3533,1.6730389026745098,0.240234375
394,3542,1.6730389026745098,0.24111328125
395,3551,1.6730389026745098,0.2419921875
396,3559,1.7759587137595099,0.2427734375
397,3567,1.7759587137595099,0.24365234375
398,3576,1.7759587137595099,0.24453124999999998
399,3585,1.7759587137595099,0.24541015624999998
400,3594,1.7759587137595099,0.2462890625
401,3602,1.7759587137595099,0.24716796875
402,3611,1.8565899707245097,0.24794921875
403,3619,1.8565899707245097,0.248828125
404,3627,1.8565899707245097,0.249609375
405,3635,1.8565899707245097,0.250390625
406,3644,1.8565899707245097,0.2513671875
407,3653,1.92056071000451,0.25224609374999996
408,3662,1.92056071000451,0.25312500000000004
409,3671,1.92056071000451,0.25400390625
410,3680,1.92056071000451,0.2548828125
411,3689,1.92056071000451,0.255859375
412,3699,1.92056071000451,0.25673828125
413,3707,1.9841941005245096,0.2576171875
414,3715,1.9841941005245096,0.2583984375
415,3723,1.9841941005245096,0.25927734375
416,3731,1.9841941005245096,0.2599609375
417,3739,1.9841941005245096,0.26083984375
418,3748,1.9841941005245096,0.26171875
419,3756,2.0388897102345096,0.2625
420,3764,2.0388897102345096,0.26337890625
421,3773,2.0388897102345096,0.26416015625
422,3781,2.0388897102345096,0.2650390625
423,3790,2.0388897102345096,0.26591796875
424,3798,2.0388897102345096,0.26669921874999997
425,3807,2.0882897289445097,0.26767578125
426,3817,2.0882897289445097,0.26865234375
427,3826,2.0882897289445097,0.26953125
428,3836,2.0882897289445097,0.2705078125
429,3844,2.13101534166451,0.2712890625
430,3898,2.13101534166451,0.27216796875
431,3915,2.1920127046645104,0.2783203125
432,3926,2.1920127046645104,0.2794921875
433,3935,2.1920127046645104,0.28037109375
434,3944,2.28728430941451,0.28125
435,3953,2.28728430941451,0.2822265625
436,3961,2.28728430941451,0.2830078125
437,3971,2.28728430941451,0.28398437499999996
438,3989,2.28728430941451,0.2857421875
439,3999,2.42103917009451,0.28681640625
440,4009,2.42103917009451,0.287890625
441,4019,2.42103917009451,0.28876953125
442,4027,2.42103917009451,0.2896484375
443,4037,2.42103917009451,0.290625
444,4046,2.57203117947951,0.29140625
445,4055,2.57203117947951,0.29238281250000003
446,4063,2.57203117947951,0.29326171875
447,4072,2.57203117947951,0.294140625
448,4080,2.57203117947951,0.294921875
449,4089,2.57203117947951,0.29580078125
450,4097,2.73871873218951,0.2966796875
451,4107,2.73871873218951,0.29755859375
452,4115,2.73871873218951,0.29843749999999997
453,4124,2.73871873218951,0.29931640625
454,4134,2.9150354345345098,0.30029296875
455,4142,2.9150354345345098,0.301171875
456,4152,2.9150354345345098,0.30205078125
457,4162,2.9150354345345098,0.30302734375
458,4171,2.9150354345345098,0.30400390625
459,4180,2.9150354345345098,0.30498046875
460,4189,2.9150354345345098,0.305859375
461,4199,3.1140927775645104,0.30673828125
462,4208,3.1140927775645104,0.30771484375
463,4217,3.1140927775645104,0.30859375
464,4226,3.1140927775645104,0.30947265625000003
465,4235,3.32375405123951,0.31044921875
466,4244,3.32375405123951,0.31123046875
467,4253,3.32375405123951,0.31220703125
468,4262,3.32375405123951,0.3130859375
469,4272,3.32375405123951,0.31406249999999997
470,4282,3.32375405123951,0.31503906249999997
471,4291,3.54691613996951,0.316015625
472,4300,3.54691613996951,0.3169921875
473,4310,3.54691613996951,0.31796875
474,4321,3.54691613996951,0.31894531249999997
475,4331,3.76652724073451,0.32001953125000004
