,Time,Force (Newtons),Distance (millimeters)
0,1,0.0044845035724650015,9.765625e-05
1,12,0.0044845035724650015,9.765625e-05
2,21,0.0044845035724650015,9.765625e-05
3,29,0.004562956772465002,9.765625e-05
4,40,0.004562956772465002,0.0001953125
5,48,0.0046708299224650016,0.0001953125
6,55,0.0046708299224650016,0.0001953125
7,63,0.0046708299224650016,0.00029296875
8,71,0.0046708299224650016,0.00029296875
9,79,0.0046708299224650016,0.00029296875
10,86,0.0046708299224650016,0.000390625
11,93,0.0046708299224650016,0.000390625
12,100,0.0046708299224650016,0.000390625
13,151,0.0050797672274650015,0.00048828125
14,160,0.0050797672274650015,0.0008789062499999999
15,177,0.0050797672274650015,0.0009765625
16,185,0.0050797672274650015,0.00107421875
17,192,0.0050797672274650015,0.001171875
18,198,0.0050797672274650015,0.001171875
19,208,0.0050797672274650015,0.00126953125
20,215,0.0050797672274650015,0.0013671875000000001
21,223,0.0053053201774650015,0.00146484375
22,230,0.0053053201774650015,0.0015625
23,239,0.005532834457465001,0.0016601562500000002
24,245,0.005532834457465001,0.0017578124999999998
25,253,0.005532834457465001,0.00185546875
26,260,0.005532834457465001,0.001953125
27,268,0.005532834457465001,0.00205078125
28,274,0.005532834457465001,0.00205078125
29,281,0.005532834457465001,0.0021484375
30,288,0.005532834457465001,0.0022460937500000003
31,295,0.005532834457465001,0.00234375
32,303,0.005532834457465001,0.0025390625
33,310,0.005532834457465001,0.00263671875
34,317,0.005532834457465001,0.0027343750000000003
35,324,0.005740735437465001,0.00283203125
36,332,0.005740735437465001,0.0029296875
37,341,0.006066316217465001,0.00302734375
38,347,0.006066316217465001,0.003125
39,353,0.006066316217465001,0.0033203125000000003
40,360,0.006066316217465001,0.00341796875
41,367,0.006066316217465001,0.0035156249999999997
42,375,0.006066316217465001,0.00361328125
43,382,0.006066316217465001,0.0038085937500000003
44,389,0.006066316217465001,0.00390625
45,397,0.006066316217465001,0.00400390625
46,404,0.006066316217465001,0.00419921875
47,411,0.006066316217465001,0.004296875
48,417,0.0064095489674650015,0.00439453125
49,425,0.0064095489674650015,0.004589843749999999
50,431,0.0064095489674650015,0.0046875
51,438,0.006711593787465001,0.00478515625
52,444,0.006711593787465001,0.00498046875
53,452,0.006711593787465001,0.005175781250000001
54,459,0.006711593787465001,0.0052734375
55,466,0.006711593787465001,0.0054687500000000005
56,473,0.006711593787465001,0.005566406249999999
57,480,0.006711593787465001,0.0057617187499999995
58,488,0.006711593787465001,0.005859375
59,495,0.006711593787465001,0.0060546875
60,501,0.006711593787465001,0.00625
61,509,0.006711593787465001,0.00634765625
62,515,0.0070048126224650014,0.00654296875
63,523,0.0070048126224650014,0.0067382812499999995
64,529,0.0070048126224650014,0.0068359375
65,537,0.007364716677465001,0.007031249999999999
66,543,0.007364716677465001,0.0072265625
67,551,0.007364716677465001,0.007421875
68,557,0.007364716677465001,0.00751953125
69,565,0.007364716677465001,0.0078125
70,573,0.007364716677465001,0.0080078125
71,580,0.007364716677465001,0.008105468749999999
72,586,0.007364716677465001,0.00830078125
73,594,0.007364716677465001,0.00849609375
74,602,0.007364716677465001,0.00869140625
75,609,0.007707949427465001,0.00888671875
76,618,0.007707949427465001,0.009179687499999999
77,674,0.008199262592465001,0.010839843750000001
78,694,0.008199262592465001,0.01142578125
79,706,0.008756280312465002,0.01181640625
80,715,0.008756280312465002,0.012109375
81,725,0.008756280312465002,0.01240234375
82,733,0.009313298032465002,0.0126953125
83,742,0.009313298032465002,0.01298828125
84,749,0.009313298032465002,0.013281250000000001
85,757,0.009313298032465002,0.013476562499999999
86,765,0.009313298032465002,0.01376953125
87,776,0.009313298032465002,0.01416015625
88,783,0.009313298032465002,0.014453125
89,792,0.009313298032465002,0.01474609375
90,799,0.009313298032465002,0.01494140625
91,807,0.009921310332465003,0.015234375000000001
92,814,0.009921310332465003,0.01552734375
93,823,0.009921310332465003,0.015820312500000003
94,831,0.010573452557465004,0.01611328125
95,839,0.010573452557465004,0.01640625
96,848,0.010573452557465004,0.016796875
97,857,0.010573452557465004,0.01708984375
98,865,0.010573452557465004,0.0173828125
99,875,0.010573452557465004,0.01787109375
100,883,0.010573452557465004,0.0181640625
101,892,0.010573452557465004,0.01845703125
102,900,0.011220691457465,0.01884765625
103,908,0.011220691457465,0.019140625
104,916,0.011220691457465,0.01943359375
105,924,0.012038566067465001,0.019824218749999997
106,931,0.012038566067465001,0.0201171875
107,939,0.012038566067465001,0.02041015625
108,947,0.012038566067465001,0.020703125000000003
109,954,0.012038566067465001,0.02109375
110,962,0.012038566067465001,0.02138671875
111,970,0.012038566067465001,0.02177734375
112,978,0.012038566067465001,0.022070312499999998
113,986,0.012038566067465001,0.0224609375
114,994,0.012837808042465001,0.02275390625
115,1002,0.012837808042465001,0.023144531250000003
116,1010,0.012837808042465001,0.02353515625
117,1016,0.012837808042465001,0.023828125
118,1025,0.013754729817465,0.02421875
119,1031,0.013754729817465,0.024511718749999998
120,1040,0.013754729817465,0.02490234375
121,1050,0.013754729817465,0.02529296875
122,1059,0.013754729817465,0.025781250000000002
123,1067,0.013754729817465,0.026171875
124,1077,0.013754729817465,0.02666015625
125,1085,0.013754729817465,0.026953124999999998
126,1093,0.014626541002465002,0.02744140625
127,1101,0.014626541002465002,0.027734375
128,1110,0.014626541002465002,0.028222656250000002
129,1117,0.014626541002465002,0.028515625
130,1124,0.015736653782465002,0.02890625
131,1132,0.015736653782465002,0.029296875
132,1141,0.015736653782465002,0.02978515625
133,1150,0.015736653782465002,0.03017578125
134,1158,0.015736653782465002,0.030664062500000002
135,1166,0.015736653782465002,0.0310546875
136,1175,0.015736653782465002,0.0314453125
137,1182,0.015736653782465002,0.031835937499999994
138,1236,0.017746036367465,0.034765625
139,1254,0.017746036367465,0.0357421875
140,1263,0.017746036367465,0.03623046875
141,1273,0.017746036367465,0.03681640625
142,1280,0.018837516512465,0.03720703125
143,1324,0.019853485452465,0.03974609375
144,1334,0.019853485452465,0.04033203125
145,1342,0.019853485452465,0.0408203125
146,1349,0.019853485452465,0.041210937499999996
147,1358,0.019853485452465,0.041796875000000004
148,1366,0.019853485452465,0.04228515625
149,1375,0.019853485452465,0.0427734375
150,1385,0.021001844167465,0.043359375000000006
151,1396,0.021001844167465,0.044042968749999994
152,1405,0.021001844167465,0.04462890625
153,1413,0.021001844167465,0.0451171875
154,1423,0.022145299557464998,0.045703125
155,1432,0.022145299557464998,0.046289062500000006
156,1444,0.022145299557464998,0.0470703125
157,1455,0.022145299557464998,0.04775390625
158,1463,0.022145299557464998,0.048242187500000006
159,1473,0.023321116892465004,0.048925781249999994
160,1482,0.023321116892465004,0.04951171875
161,1491,0.023321116892465004,0.05009765625
162,1499,0.023321116892465004,0.0505859375
163,1508,0.023321116892465004,0.05126953125
164,1515,0.024474378932465003,0.0517578125
165,1527,0.024474378932465003,0.0525390625
166,1537,0.024474378932465003,0.053125000000000006
167,1565,0.024474378932465003,0.055078125
168,1592,0.025819851312465003,0.05703125
169,1616,0.027181014332465,0.058691406249999994
170,1640,0.027181014332465,0.0603515625
171,1649,0.027181014332465,0.06103515625
172,1658,0.027181014332465,0.061621093749999994
173,1666,0.028570616637465,0.0623046875
174,1675,0.028570616637465,0.062890625
175,1683,0.028570616637465,0.0634765625
176,1690,0.028570616637465,0.0640625
177,1698,0.028570616637465,0.0646484375
178,1706,0.028570616637465,0.065234375
179,1714,0.030220095167465,0.0658203125
180,1722,0.030220095167465,0.06650390625
181,1730,0.030220095167465,0.06708984375
182,1738,0.030220095167465,0.06767578125
183,1746,0.030220095167465,0.068359375
184,1754,0.030220095167465,0.0689453125
185,1762,0.030220095167465,0.06953125
186,1770,0.031695015327465,0.0701171875
187,1779,0.031695015327465,0.07080078125
188,1786,0.031695015327465,0.07138671875
189,1794,0.031695015327465,0.07197265625
190,1803,0.031695015327465,0.07265625
191,1810,0.033329783882465006,0.07333984375
192,1818,0.033329783882465006,0.07392578125
193,1826,0.033329783882465006,0.07460937499999999
194,1834,0.033329783882465006,0.0751953125
195,1842,0.033329783882465006,0.07587890624999999
196,1850,0.033329783882465006,0.07646484375
197,1899,0.034972397757465,0.08046875
198,1918,0.036796434657465,0.08212890625
199,1928,0.036796434657465,0.0830078125
200,1937,0.036796434657465,0.08369140625
201,1944,0.036796434657465,0.084375
202,1952,0.036796434657465,0.0849609375
203,1959,0.03855868966246499,0.08564453124999999
204,1967,0.03855868966246499,0.08623046875
205,1975,0.03855868966246499,0.08701171875
206,1982,0.03855868966246499,0.08759765625
207,1993,0.03855868966246499,0.08857421875
208,2001,0.040528845647465,0.0892578125
209,2010,0.040528845647465,0.0900390625
210,2017,0.040528845647465,0.09072265624999999
211,2026,0.040528845647465,0.09150390624999999
212,2034,0.040528845647465,0.09218749999999999
213,2042,0.040528845647465,0.09287109375
214,2050,0.040528845647465,0.09365234375
215,2059,0.04240779978746499,0.09443359375
216,2066,0.04240779978746499,0.09501953125000001
217,2075,0.04240779978746499,0.0958984375
218,2083,0.04240779978746499,0.09658203125
219,2091,0.04240779978746499,0.09736328125
220,2099,0.044426008357465,0.09804687499999999
221,2108,0.044426008357465,0.09882812499999999
222,2115,0.044426008357465,0.09951171874999999
223,2124,0.044426008357465,0.100390625
224,2133,0.044426008357465,0.101171875
225,2140,0.044426008357465,0.10185546875
226,2148,0.044426008357465,0.10263671875
227,2156,0.046519728132465,0.1033203125
228,2163,0.046519728132465,0.10400390625
229,2170,0.046519728132465,0.10478515625000001
230,2178,0.046519728132465,0.10546875
231,2188,0.046519728132465,0.10634765625
232,2196,0.046519728132465,0.10712890625
233,2204,0.048759566992465,0.10791015625
234,2211,0.048759566992465,0.10869140625000001
235,2219,0.048759566992465,0.10947265625000001
236,2227,0.048759566992465,0.11025390624999999
237,2235,0.048759566992465,0.11103515624999999
238,2243,0.048759566992465,0.11181640625
239,2251,0.051021961147464996,0.11259765625
240,2259,0.051021961147464996,0.11337890625
241,2267,0.051021961147464996,0.11416015624999999
242,2276,0.051021961147464996,0.11494140624999999
243,2283,0.051021961147464996,0.11572265625
244,2293,0.051021961147464996,0.11669921875
245,2300,0.053342214537464995,0.11738281249999999
246,2309,0.053342214537464995,0.11826171875
247,2316,0.053342214537464995,0.1189453125
248,2324,0.053342214537464995,0.11982421874999999
249,2332,0.053342214537464995,0.12060546875
250,2341,0.055637951302464995,0.12148437499999999
251,2349,0.055637951302464995,0.12226562499999999
252,2358,0.055637951302464995,0.12324218749999999
253,2365,0.055637951302464995,0.12392578124999999
254,2374,0.055637951302464995,0.12490234374999999
255,2382,0.055637951302464995,0.1255859375
256,2391,0.055637951302464995,0.12656250000000002
257,2399,0.058119033752464994,0.12734374999999998
258,2408,0.058119033752464994,0.12822265625
259,2416,0.058119033752464994,0.12900390625000002
260,2425,0.058119033752464994,0.1298828125
261,2433,0.058119033752464994,0.13076171875
262,2442,0.060640323467465,0.131640625
263,2450,0.060640323467465,0.132421875
264,2459,0.060640323467465,0.13330078125
265,2467,0.060640323467465,0.1341796875
266,2476,0.060640323467465,0.1349609375
267,2483,0.060640323467465,0.1357421875
268,2492,0.063371475492465,0.13662109375
269,2500,0.063371475492465,0.13740234375
270,2509,0.063371475492465,0.13828125
271,2517,0.063371475492465,0.13916015625
272,2526,0.063371475492465,0.1400390625
273,2533,0.063371475492465,0.14072265625
274,2541,0.066044768282465,0.14150390625
275,2549,0.066044768282465,0.14228515625
276,2558,0.066044768282465,0.1431640625
277,2565,0.066044768282465,0.1439453125
278,2574,0.066044768282465,0.14482421875
279,2582,0.066044768282465,0.14560546875
280,2608,0.068970091977465,0.14814453125
281,2615,0.068970091977465,0.14892578125
282,2624,0.068970091977465,0.1498046875
283,2631,0.071778716537465,0.1505859375
284,2640,0.071778716537465,0.15146484375
285,2648,0.071778716537465,0.15224609375
286,2657,0.071778716537465,0.15302734375
287,2664,0.071778716537465,0.15380859375
288,2673,0.071778716537465,0.15478515625
289,2681,0.071778716537465,0.15556640625
290,2690,0.074858985302465,0.1564453125
291,2698,0.074858985302465,0.1572265625
292,2707,0.074858985302465,0.15810546875
293,2715,0.074858985302465,0.158984375
294,2724,0.074858985302465,0.159765625
295,2732,0.077970635347465,0.160546875
296,2740,0.077970635347465,0.16142578125
297,2748,0.077970635347465,0.16220703125
298,2757,0.077970635347465,0.1630859375
299,2813,0.081306857677465,0.1681640625
300,2827,0.08441948838746499,0.17001953125
301,2835,0.08441948838746499,0.1708984375
302,2843,0.08441948838746499,0.17167968749999998
303,2850,0.08441948838746499,0.1724609375
304,2858,0.08441948838746499,0.17324218749999998
305,2866,0.08441948838746499,0.1740234375
306,2876,0.08441948838746499,0.17500000000000002
307,2885,0.08785966120746501,0.17587890625000002
308,2893,0.08785966120746501,0.1767578125
309,2901,0.08785966120746501,0.1775390625
310,2910,0.08785966120746501,0.17841796875
311,2917,0.08785966120746501,0.1791015625
312,2926,0.09113508230746499,0.17998046875
313,2934,0.09113508230746499,0.180859375
314,2943,0.09113508230746499,0.18173828125
315,2951,0.09113508230746499,0.18251953125
316,2960,0.09113508230746499,0.1833984375
317,2969,0.09113508230746499,0.18427734375000002
318,2977,0.09113508230746499,0.18515625000000002
319,2986,0.09477923344746499,0.18603515625
320,2995,0.09477923344746499,0.1869140625
321,3005,0.09477923344746499,0.18789062499999998
322,3013,0.09477923344746499,0.18876953124999998
323,3022,0.098313550107465,0.18964843750000002
324,3031,0.098313550107465,0.19052734375000002
325,3039,0.098313550107465,0.19130859375
326,3048,0.098313550107465,0.1921875
327,3056,0.098313550107465,0.19306640625
328,3065,0.098313550107465,0.1939453125
329,3075,0.098313550107465,0.19492187500000002
330,3083,0.10223522944246499,0.19570312499999998
331,3092,0.10223522944246499,0.1966796875
332,3101,0.10223522944246499,0.19755859375
333,3131,0.10594900779746501,0.20058593749999998
334,3179,0.109975618287465,0.2052734375
335,3190,0.109975618287465,0.2064453125
336,3199,0.109975618287465,0.20732421875
337,3208,0.114039494047465,0.20830078124999998
338,3217,0.114039494047465,0.20908203125
339,3226,0.114039494047465,0.2099609375
340,3233,0.114039494047465,0.21074218749999998
341,3242,0.114039494047465,0.21162109375000002
342,3250,0.114039494047465,0.21240234375
343,3260,0.114039494047465,0.21337890625
344,3269,0.114039494047465,0.2142578125
345,3278,0.11844366056246498,0.21513671875
346,3286,0.11844366056246498,0.21601562500000002
347,3294,0.11844366056246498,0.216796875
348,3303,0.11844366056246498,0.21767578124999998
349,3312,0.122681114027465,0.21865234375
350,3321,0.122681114027465,0.21953125
351,3330,0.122681114027465,0.22041015625
352,3340,0.122681114027465,0.22138671875000002
353,3348,0.122681114027465,0.22216796875
354,3356,0.122681114027465,0.223046875
355,3365,0.122681114027465,0.22392578125
356,3374,0.127198057017465,0.2248046875
357,3382,0.127198057017465,0.2255859375
358,3391,0.127198057017465,0.22646484375
359,3399,0.127198057017465,0.22724609375
360,3408,0.13150317636746497,0.22822265625000002
361,3416,0.13150317636746497,0.22900390625
362,3426,0.13150317636746497,0.230078125
363,3435,0.13150317636746497,0.23095703125
364,3445,0.13150317636746497,0.23193359375
365,3454,0.13150317636746497,0.23271484374999998
366,3462,0.13150317636746497,0.23359375000000002
367,3471,0.136290782897465,0.23447265625000002
368,3480,0.136290782897465,0.2353515625
369,3489,0.136290782897465,0.23623046875
370,3517,0.14092834768246498,0.2390625
371,3526,0.14092834768246498,0.24003906249999998
372,3535,0.14092834768246498,0.24091796875000002
373,3543,0.14092834768246498,0.24179687500000002
374,3552,0.14092834768246498,0.242578125
375,3560,0.14092834768246498,0.24345703125
376,3569,0.146040554327465,0.2443359375
377,3579,0.146040554327465,0.24531250000000002
378,3588,0.146040554327465,0.24619140625000002
379,3596,0.150970357282465,0.2470703125
380,3606,0.150970357282465,0.248046875
381,3615,0.150970357282465,0.24892578124999998
382,3627,0.150970357282465,0.25009765625
383,3636,0.150970357282465,0.2509765625
384,3644,0.150970357282465,0.25185546875
385,3653,0.150970357282465,0.252734375
386,3661,0.150970357282465,0.253515625
387,3670,0.156343420817465,0.25449218749999997
388,3679,0.156343420817465,0.25537109375
389,3688,0.156343420817465,0.25625
390,3697,0.161841028807465,0.25712890624999996
391,3705,0.161841028807465,0.25791015625
392,3714,0.161841028807465,0.2587890625
393,3722,0.161841028807465,0.25966796875
394,3731,0.161841028807465,0.26044921875000004
395,3739,0.161841028807465,0.261328125
396,3748,0.161841028807465,0.26220703125
397,3805,0.174292532312465,0.26796875000000003
398,3817,0.174292532312465,0.26914062499999997
399,3827,0.174292532312465,0.2701171875
400,3835,0.174292532312465,0.2708984375
401,3844,0.174292532312465,0.27177734374999996
402,3852,0.174292532312465,0.27265625000000004
403,3862,0.18095026699746497,0.2736328125
404,3871,0.18095026699746497,0.27451171875
405,3880,0.18095026699746497,0.275390625
406,3888,0.18754033579746499,0.27626953125
407,3897,0.18754033579746499,0.27705078125
408,3905,0.18754033579746499,0.2779296875
409,3914,0.18754033579746499,0.27880859375
410,3923,0.18754033579746499,0.2796875
411,3932,0.18754033579746499,0.28056640625
412,3940,0.18754033579746499,0.2814453125
413,3949,0.18754033579746499,0.28232421875
414,3957,0.18754033579746499,0.28310546875
415,3966,0.195054191027465,0.28398437499999996
416,3974,0.195054191027465,0.28486328125000004
417,3983,0.20252783899246501,0.2857421875
418,3994,0.20252783899246501,0.28681640625
419,4002,0.20252783899246501,0.28759765625
420,4011,0.20252783899246501,0.28857421875
421,4021,0.20252783899246501,0.289453125
422,4029,0.20252783899246501,0.29033203125
423,4038,0.20252783899246501,0.2912109375
424,4047,0.20252783899246501,0.29208984375
425,4056,0.20252783899246501,0.29306640625
426,4066,0.211350881997465,0.29404296875
427,4075,0.211350881997465,0.294921875
428,4084,0.21979833030746498,0.29580078125
429,4093,0.21979833030746498,0.2966796875
430,4102,0.21979833030746498,0.29765625
431,4112,0.21979833030746498,0.29853515625
432,4123,0.21979833030746498,0.29970703125000003
433,4131,0.21979833030746498,0.30048828125
434,4141,0.21979833030746498,0.3015625
435,4150,0.21979833030746498,0.30244140625
436,4159,0.22960301897746502,0.30332031249999997
437,4168,0.22960301897746502,0.30419921875
438,4177,0.23924295592746497,0.30517578125
439,4187,0.23924295592746497,0.30615234375
440,4196,0.23924295592746497,0.30703125000000003
441,4207,0.23924295592746497,0.30810546875
442,4215,0.23924295592746497,0.30888671875
443,4224,0.23924295592746497,0.309765625
444,4232,0.23924295592746497,0.31064453124999997
445,4240,0.23924295592746497,0.31142578125
446,4249,0.23924295592746497,0.3123046875
447,4258,0.25078734430746497,0.31328124999999996
448,4268,0.25078734430746497,0.31416015625000004
449,4276,0.26217188429246496,0.31503906249999997
450,4285,0.26217188429246496,0.31591796875
451,4294,0.26217188429246496,0.316796875
452,4303,0.26217188429246496,0.31767578125
453,4312,0.26217188429246496,0.31865234375
454,4320,0.26217188429246496,0.31943359375
455,4329,0.26217188429246496,0.3203125
456,4339,0.26217188429246496,0.3212890625
457,4348,0.26217188429246496,0.322265625
458,4357,0.2749685818774649,0.32314453125000003
459,4366,0.2874906932624649,0.3240234375
460,4392,0.2874906932624649,0.3265625
461,4401,0.2874906932624649,0.3275390625
