,Time,Force (Newtons),Distance (millimeters)
0,1,0.0394687742410849,9.765625e-05
1,11,0.0394687742410849,9.765625e-05
2,66,0.0428912950910849,0.00029296875
3,84,0.0428912950910849,0.00029296875
4,92,0.0428912950910849,0.000390625
5,100,0.0428912950910849,0.000390625
6,106,0.0428912950910849,0.00048828125
7,114,0.0428912950910849,0.00048828125
8,120,0.0428912950910849,0.00048828125
9,128,0.0428912950910849,0.0005859375
10,134,0.0428912950910849,0.0005859375
11,142,0.04610493429608491,0.0006835937500000001
12,148,0.04610493429608491,0.0006835937500000001
13,156,0.04610493429608491,0.00078125
14,163,0.04610493429608491,0.0008789062499999999
15,170,0.04610493429608491,0.0008789062499999999
16,178,0.04610493429608491,0.0009765625
17,185,0.04610493429608491,0.00107421875
18,191,0.04610493429608491,0.00107421875
19,198,0.04610493429608491,0.001171875
20,206,0.04610493429608491,0.00126953125
21,212,0.04610493429608491,0.00126953125
22,219,0.04610493429608491,0.0013671875000000001
23,227,0.04610493429608491,0.00146484375
24,234,0.047348417516084915,0.0015625
25,242,0.04863799199108491,0.0016601562500000002
26,248,0.04863799199108491,0.0016601562500000002
27,255,0.04863799199108491,0.0017578124999999998
28,261,0.04863799199108491,0.00185546875
29,267,0.04863799199108491,0.001953125
30,274,0.04863799199108491,0.00205078125
31,281,0.04863799199108491,0.0021484375
32,288,0.04863799199108491,0.0022460937500000003
33,295,0.04863799199108491,0.00234375
34,302,0.04863799199108491,0.00244140625
35,309,0.04863799199108491,0.0025390625
36,316,0.04863799199108491,0.00263671875
37,324,0.04863799199108491,0.0027343750000000003
38,331,0.049960909076084914,0.00283203125
39,339,0.0514397518960849,0.00302734375
40,346,0.0514397518960849,0.003125
41,355,0.0514397518960849,0.0032226562500000003
42,361,0.0514397518960849,0.0033203125000000003
43,368,0.0514397518960849,0.00341796875
44,375,0.0514397518960849,0.00361328125
45,382,0.0514397518960849,0.0037109375
46,389,0.0514397518960849,0.0038085937500000003
47,396,0.0514397518960849,0.00400390625
48,403,0.0514397518960849,0.0041015625
49,410,0.0514397518960849,0.00419921875
50,417,0.0514397518960849,0.004296875
51,424,0.0514397518960849,0.0044921875000000005
52,430,0.053369700616084904,0.004589843749999999
53,438,0.05552029896108491,0.00478515625
54,445,0.05552029896108491,0.0048828125
55,453,0.05552029896108491,0.005078125
56,460,0.05552029896108491,0.005175781250000001
57,468,0.05552029896108491,0.00537109375
58,475,0.05552029896108491,0.005566406249999999
59,481,0.05552029896108491,0.0056640625
60,489,0.05552029896108491,0.005859375
61,497,0.05552029896108491,0.0060546875
62,505,0.05552029896108491,0.00615234375
63,512,0.05552029896108491,0.00634765625
64,518,0.05552029896108491,0.00654296875
65,526,0.058711382871084905,0.006640625000000001
66,532,0.062188820961084905,0.0068359375
67,540,0.062188820961084905,0.007031249999999999
68,547,0.062188820961084905,0.0072265625
69,555,0.062188820961084905,0.007421875
70,562,0.062188820961084905,0.007617187500000001
71,570,0.062188820961084905,0.0078125
72,578,0.062188820961084905,0.0080078125
73,586,0.062188820961084905,0.008203125
74,593,0.062188820961084905,0.0083984375
75,601,0.062188820961084905,0.00859375
76,608,0.062188820961084905,0.0087890625
77,614,0.062188820961084905,0.008984375000000001
78,622,0.0676256277210849,0.009179687499999999
79,630,0.07334878866108491,0.009375
80,638,0.07334878866108491,0.00966796875
81,645,0.07334878866108491,0.00986328125
82,651,0.07334878866108491,0.01005859375
83,659,0.07334878866108491,0.01025390625
84,666,0.07334878866108491,0.010449218750000001
85,672,0.07334878866108491,0.01064453125
86,679,0.07334878866108491,0.010839843750000001
87,687,0.07334878866108491,0.011132812499999999
88,694,0.07334878866108491,0.011328125
89,702,0.07334878866108491,0.011523437499999999
90,709,0.07334878866108491,0.01181640625
91,718,0.08117057270108491,0.012109375
92,727,0.08117057270108491,0.01240234375
93,734,0.08930813087108491,0.01259765625
94,741,0.08930813087108491,0.012792968750000001
95,749,0.08930813087108491,0.0130859375
96,756,0.08930813087108491,0.013281250000000001
97,764,0.08930813087108491,0.013574218749999999
98,772,0.08930813087108491,0.0138671875
99,780,0.08930813087108491,0.01416015625
100,787,0.08930813087108491,0.01435546875
101,794,0.08930813087108491,0.0146484375
102,802,0.08930813087108491,0.01494140625
103,810,0.09964139797608491,0.015234375000000001
104,816,0.09964139797608491,0.0154296875
105,825,0.09964139797608491,0.01572265625
106,832,0.11041498366608489,0.016015625
107,841,0.11041498366608489,0.01630859375
108,847,0.11041498366608489,0.0166015625
109,856,0.11041498366608489,0.01689453125
110,863,0.11041498366608489,0.0171875
111,872,0.11041498366608489,0.017578125
112,878,0.11041498366608489,0.0177734375
113,932,0.1372028288060849,0.019921875
114,954,0.1372028288060849,0.020898437500000002
115,962,0.1372028288060849,0.02119140625
116,971,0.1372028288060849,0.02158203125
117,978,0.1372028288060849,0.021875000000000002
118,987,0.1372028288060849,0.022265624999999997
119,994,0.1372028288060849,0.02255859375
120,1001,0.1372028288060849,0.02294921875
121,1009,0.1529944773010849,0.023242187499999997
122,1016,0.1529944773010849,0.0236328125
123,1024,0.1696706856260849,0.02392578125
124,1031,0.1696706856260849,0.02421875
125,1039,0.1696706856260849,0.024609375
126,1047,0.1696706856260849,0.025
127,1055,0.1696706856260849,0.025390625
128,1062,0.1696706856260849,0.025683593749999997
129,1070,0.1696706856260849,0.02607421875
130,1078,0.1696706856260849,0.02646484375
131,1084,0.1696706856260849,0.026757812500000002
132,1111,0.1877413995810849,0.028027343750000003
133,1118,0.1877413995810849,0.02841796875
134,1126,0.2067192286610849,0.02880859375
135,1134,0.2067192286610849,0.029199218750000002
136,1142,0.2067192286610849,0.029589843749999997
137,1150,0.2067192286610849,0.02998046875
138,1157,0.2067192286610849,0.030371093749999998
139,1165,0.2067192286610849,0.03076171875
140,1173,0.2067192286610849,0.03115234375
141,1181,0.2067192286610849,0.031640625000000006
142,1189,0.2067192286610849,0.03203125
143,1197,0.2263031087110849,0.032421874999999996
144,1205,0.2263031087110849,0.03291015625
145,1212,0.2263031087110849,0.033203125
146,1220,0.2467784132460849,0.03369140625
147,1228,0.2467784132460849,0.034082031250000006
148,1236,0.2467784132460849,0.0345703125
149,1243,0.2467784132460849,0.0349609375
150,1250,0.2467784132460849,0.0353515625
151,1258,0.2467784132460849,0.0357421875
152,1265,0.2467784132460849,0.0361328125
153,1274,0.2467784132460849,0.03662109375
154,1281,0.2467784132460849,0.037109375
155,1290,0.2467784132460849,0.0375
156,1297,0.2671733032510849,0.03798828125
157,1306,0.2671733032510849,0.0384765625
158,1314,0.2671733032510849,0.0388671875
159,1321,0.2886655573910849,0.039355468750000004
160,1329,0.2886655573910849,0.03974609375
161,1336,0.2886655573910849,0.040234375
162,1344,0.2886655573910849,0.04072265625
163,1353,0.2886655573910849,0.041210937499999996
164,1361,0.2886655573910849,0.041699218749999996
165,1369,0.2886655573910849,0.042089843749999994
166,1377,0.2886655573910849,0.042578125
167,1384,0.2886655573910849,0.04306640625
168,1393,0.31058047814608486,0.043652343749999996
169,1400,0.31058047814608486,0.044042968749999994
170,1408,0.31058047814608486,0.044531249999999994
171,1416,0.33378203138108486,0.04501953125
172,1424,0.33378203138108486,0.04560546875
173,1432,0.33378203138108486,0.046093749999999996
174,1441,0.33378203138108486,0.046582031249999996
175,1449,0.33378203138108486,0.04716796875
176,1457,0.33378203138108486,0.04765625
177,1465,0.33378203138108486,0.04814453125
178,1473,0.33378203138108486,0.048632812500000004
179,1480,0.33378203138108486,0.049121093750000004
180,1488,0.3583692642610849,0.04970703125
181,1496,0.3583692642610849,0.0501953125
182,1504,0.3583692642610849,0.050683593750000006
183,1512,0.38459616902108484,0.05126953125
184,1520,0.38459616902108484,0.0517578125
185,1528,0.38459616902108484,0.05234375
186,1536,0.38459616902108484,0.05283203125
187,1544,0.38459616902108484,0.053417968749999996
188,1552,0.38459616902108484,0.053906249999999996
189,1560,0.38459616902108484,0.0544921875
190,1568,0.38459616902108484,0.05498046875
191,1576,0.38459616902108484,0.055566406250000006
192,1583,0.41260494208608484,0.056054687500000006
193,1591,0.41260494208608484,0.056640625
194,1599,0.41260494208608484,0.05712890625
195,1607,0.41260494208608484,0.05771484375
196,1615,0.44224358038108486,0.058300781249999996
197,1623,0.44224358038108486,0.058886718750000004
198,1630,0.44224358038108486,0.059375
199,1679,0.4727010739510849,0.062890625
200,1698,0.4727010739510849,0.0642578125
201,1706,0.4727010739510849,0.06494140625
202,1715,0.504484426601085,0.065625
203,1724,0.504484426601085,0.06630859375
204,1732,0.504484426601085,0.06689453125
205,1740,0.504484426601085,0.06748046875
206,1749,0.504484426601085,0.06816406250000001
207,1756,0.504484426601085,0.06875
208,1764,0.504484426601085,0.0693359375
209,1772,0.504484426601085,0.07001953125
210,1780,0.5363432904560849,0.07060546875000001
211,1788,0.5363432904560849,0.07119140625
212,1796,0.5363432904560849,0.07187500000000001
213,1804,0.5363432904560849,0.0724609375
214,1812,0.5700879731060849,0.07314453125
215,1820,0.5700879731060849,0.07373046875
216,1828,0.5700879731060849,0.0744140625
217,1836,0.5700879731060849,0.075
218,1844,0.5700879731060849,0.07568359375
219,1852,0.5700879731060849,0.07626953125
220,1860,0.5700879731060849,0.076953125
221,1868,0.5700879731060849,0.07763671875
222,1877,0.6049849371310848,0.07832031249999999
223,1885,0.6049849371310848,0.07900390625
224,1896,0.6049849371310848,0.0798828125
225,1906,0.6424394754760848,0.0806640625
226,1913,0.6424394754760848,0.08134765625
227,1922,0.6424394754760848,0.08203125
228,1929,0.6424394754760848,0.08271484375
229,1937,0.6424394754760848,0.08339843749999999
230,1945,0.6424394754760848,0.08408203125
231,1953,0.6424394754760848,0.084765625
232,1962,0.6424394754760848,0.08544921875
233,1970,0.6814346385360849,0.0861328125
234,1979,0.6814346385360849,0.08701171875
235,1989,0.6814346385360849,0.08779296875
236,1998,0.6814346385360849,0.08857421875
237,2008,0.7229716852760849,0.08935546875
238,2016,0.7229716852760849,0.090234375
239,2025,0.7229716852760849,0.091015625
240,2035,0.7229716852760849,0.09189453125
241,2045,0.7229716852760849,0.09267578125
242,2054,0.7229716852760849,0.0935546875
243,2066,0.7663327689160848,0.09453125
244,2076,0.7663327689160848,0.09560546874999999
245,2085,0.7663327689160848,0.0962890625
246,2093,0.7663327689160848,0.09716796875
247,2103,0.8127564693510848,0.09794921875
248,2111,0.8127564693510848,0.09873046875
249,2119,0.8127564693510848,0.099609375
250,2127,0.8127564693510848,0.10029296874999999
251,2135,0.8127564693510848,0.10107421875
252,2144,0.8127564693510848,0.1017578125
253,2151,0.8127564693510848,0.10244140625
254,2159,0.8620672475460849,0.10322265625
255,2166,0.8620672475460849,0.10390625
256,2174,0.8620672475460849,0.1046875
257,2181,0.8620672475460849,0.10537109374999999
258,2190,0.8620672475460849,0.10625000000000001
259,2198,0.9149270523760848,0.10693359375
260,2206,0.9149270523760848,0.10771484375
261,2214,0.9149270523760848,0.10849609375
262,2223,0.9149270523760848,0.109375
263,2230,0.9149270523760848,0.11005859374999999
264,2240,0.9149270523760848,0.11103515624999999
265,2247,0.9149270523760848,0.11171874999999999
266,2256,0.9687900775010849,0.11259765625
267,2263,0.9687900775010849,0.11328125
268,2272,0.9687900775010849,0.11416015624999999
269,2279,0.9687900775010849,0.11494140624999999
270,2289,0.9687900775010849,0.1158203125
271,2296,1.0249566847110847,0.11660156249999999
272,2305,1.0249566847110847,0.11748046875
273,2313,1.0249566847110847,0.11826171875
274,2322,1.0249566847110847,0.119140625
275,2329,1.0249566847110847,0.119921875
276,2339,1.0249566847110847,0.12080078124999999
277,2346,1.0249566847110847,0.12158203125
278,2355,1.080558428881085,0.12246093749999999
279,2363,1.080558428881085,0.12324218749999999
280,2371,1.080558428881085,0.1240234375
281,2378,1.080558428881085,0.1248046875
282,2387,1.080558428881085,0.12568359375
283,2395,1.139415000186085,0.12656250000000002
284,2450,1.200796783866085,0.13203125
285,2469,1.200796783866085,0.13388671875000002
286,2478,1.200796783866085,0.134765625
287,2487,1.200796783866085,0.13564453125
288,2495,1.267161326411085,0.13642578125000002
289,2504,1.267161326411085,0.13740234375
290,2513,1.267161326411085,0.13828125
291,2521,1.267161326411085,0.13916015625
292,2530,1.267161326411085,0.13994140625
293,2539,1.267161326411085,0.14091796875
294,2548,1.334913509931085,0.14169921875
295,2556,1.334913509931085,0.142578125
296,2564,1.334913509931085,0.14345703125
297,2573,1.334913509931085,0.14423828125
298,2582,1.334913509931085,0.1451171875
299,2590,1.406267675996085,0.14599609375
300,2598,1.406267675996085,0.14677734374999998
301,2607,1.406267675996085,0.14775390625
302,2616,1.406267675996085,0.14853515625000002
303,2624,1.406267675996085,0.1494140625
304,2633,1.406267675996085,0.1501953125
305,2641,1.478932991166085,0.15107421875000002
306,2649,1.478932991166085,0.151953125
307,2661,1.478932991166085,0.15302734375
308,2669,1.478932991166085,0.15390625
309,2677,1.478932991166085,0.1546875
310,2685,1.478932991166085,0.15546875
311,2694,1.5580147974310847,0.15634765625000002
312,2703,1.5580147974310847,0.1572265625
313,2711,1.5580147974310847,0.15810546875
314,2727,1.5580147974310847,0.159765625
315,2737,1.6414340849910851,0.16074218750000002
316,2746,1.6414340849910851,0.16162109375
317,2756,1.6414340849910851,0.16259765625
318,2764,1.6414340849910851,0.16337890625
319,2772,1.6414340849910851,0.16416015625
320,2781,1.6414340849910851,0.1650390625
321,2789,1.731270844311085,0.16591796874999998
322,2797,1.731270844311085,0.16669921875
323,2806,1.731270844311085,0.167578125
324,2813,1.731270844311085,0.16826171875
325,2822,1.731270844311085,0.16923828124999998
326,2831,1.731270844311085,0.17001953125
327,2839,1.821263529366085,0.1708984375
328,2847,1.821263529366085,0.17167968749999998
329,2856,1.821263529366085,0.17255859375000002
330,2865,1.821263529366085,0.17343750000000002
331,2873,1.821263529366085,0.17431640625
332,2881,1.821263529366085,0.17509765625
333,2890,1.916128158141085,0.1759765625
334,2898,1.916128158141085,0.17685546875
335,2907,1.916128158141085,0.177734375
336,2915,1.916128158141085,0.178515625
337,2925,1.916128158141085,0.17949218749999998
338,2934,2.0134258167810852,0.18037109375
339,2942,2.0134258167810852,0.18125
340,2951,2.0134258167810852,0.18203125
341,2959,2.0134258167810852,0.18291015625
342,2968,2.0134258167810852,0.18369140625
343,2976,2.0134258167810852,0.18466796875
344,2985,2.121067529841085,0.18544921874999998
345,2994,2.121067529841085,0.18642578125
346,3003,2.121067529841085,0.18720703125000002
347,3011,2.121067529841085,0.18808593750000002
348,3020,2.121067529841085,0.18896484375
349,3029,2.233424280221085,0.18984375
350,3038,2.233424280221085,0.19082031249999998
351,3046,2.233424280221085,0.19150390625
352,3054,2.233424280221085,0.1923828125
353,3062,2.233424280221085,0.1931640625
354,3070,2.233424280221085,0.1939453125
355,3078,2.233424280221085,0.19482421875
356,3087,2.3548512011860847,0.19570312499999998
357,3096,2.3548512011860847,0.19658203124999998
358,3104,2.3548512011860847,0.19736328125000002
359,3112,2.3548512011860847,0.19814453124999998
360,3120,2.3548512011860847,0.19892578125000002
361,3128,2.4783630159410848,0.19980468750000002
362,3137,2.4783630159410848,0.20068359375
363,3146,2.4783630159410848,0.2015625
364,3156,2.4783630159410848,0.20253906249999998
365,3164,2.4783630159410848,0.2033203125
366,3172,2.4783630159410848,0.20419921875
367,3181,2.613941913521085,0.205078125
368,3234,2.7562442503410844,0.21035156249999998
369,3252,2.7562442503410844,0.21220703125
370,3261,2.7562442503410844,0.2130859375
371,3270,2.7562442503410844,0.21406250000000002
372,3279,2.913320305386085,0.21484375
373,3289,2.913320305386085,0.2158203125
374,3297,2.913320305386085,0.2166015625
375,3306,2.913320305386085,0.217578125
376,3314,2.913320305386085,0.218359375
377,3322,3.0723880910460846,0.21923828125
378,3331,3.0723880910460846,0.22001953125
379,3339,3.0723880910460846,0.22089843750000002
380,3348,3.0723880910460846,0.22177734375000002
381,3356,3.0723880910460846,0.22255859374999998
382,3365,3.0723880910460846,0.22343749999999998
383,3373,3.2409938244960843,0.22431640625
384,3382,3.2409938244960843,0.22509765625
385,3390,3.2409938244960843,0.2259765625
386,3399,3.2409938244960843,0.22685546875
387,3407,3.2409938244960843,0.227734375
388,3415,3.409612306591084,0.228515625
389,3424,3.409612306591084,0.22939453124999998
390,3432,3.409612306591084,0.23017578125
391,3443,3.409612306591084,0.23125
392,3451,3.409612306591084,0.23203125000000002
393,3460,3.409612306591084,0.2330078125
394,3470,3.409612306591084,0.23398437500000002
395,3478,3.589730066476085,0.23476562499999998
396,3488,3.589730066476085,0.23583984375
397,3497,3.589730066476085,0.23662109375
398,3506,3.589730066476085,0.23759765624999998
399,3515,3.766614573856085,0.23847656250000002
400,3524,3.766614573856085,0.23935546875000002
401,3532,3.766614573856085,0.240234375
402,3542,3.766614573856085,0.24111328125
403,3550,3.766614573856085,0.2419921875
404,3559,3.766614573856085,0.2427734375
405,3567,3.766614573856085,0.24365234375
406,3578,3.9453799967060847,0.2447265625
407,3586,3.9453799967060847,0.24560546875
408,3595,3.9453799967060847,0.24648437499999998
409,3603,3.9453799967060847,0.247265625
410,3611,4.115044848356084,0.248046875
411,3619,4.115044848356084,0.248828125
412,3627,4.115044848356084,0.24970703125
413,3635,4.115044848356084,0.25048828125
414,3643,4.115044848356084,0.25126953125
415,3652,4.115044848356084,0.2521484375
416,3661,4.115044848356084,0.25312500000000004
417,3670,4.289018742016085,0.25400390625
418,3679,4.289018742016085,0.2548828125
419,3689,4.289018742016085,0.255859375
420,3698,4.289018742016085,0.25673828125
421,3707,4.458981715826084,0.2576171875
422,3715,4.458981715826084,0.25849609375
423,3725,4.458981715826084,0.25947265625
424,3733,4.458981715826084,0.26025390625
425,3742,4.458981715826084,0.26123046875
426,3752,4.458981715826084,0.262109375
427,3760,4.458981715826084,0.26298828125
428,3769,4.6337881940710846,0.2638671875
429,3777,4.6337881940710846,0.26474609375
430,3786,4.6337881940710846,0.265625
431,3795,4.6337881940710846,0.26650390625
432,3804,4.799390150626085,0.2673828125
433,3812,4.799390150626085,0.2681640625
434,3820,4.799390150626085,0.2689453125
435,3829,4.799390150626085,0.269921875
436,3838,4.799390150626085,0.27080078125
437,3847,4.799390150626085,0.2716796875
438,3857,4.799390150626085,0.27265625000000004
439,3865,4.958355947126084,0.2734375
440,3873,4.958355947126084,0.27431640625
441,3882,4.958355947126084,0.2751953125
442,3919,5.106989457186084,0.27607421875
443,3946,5.106989457186084,0.28125
444,3960,5.106989457186084,0.28291015625
445,3969,5.248220907826085,0.28388671875
446,3978,5.248220907826085,0.28486328125000004
447,3988,5.248220907826085,0.2857421875
448,3997,5.379099478061085,0.28662109375
449,4006,5.379099478061085,0.28759765625
450,4015,5.379099478061085,0.2884765625
451,4023,5.379099478061085,0.28935546875
452,4032,5.379099478061085,0.29013671875
453,4042,5.379099478061085,0.29111328124999997
454,4050,5.379099478061085,0.2919921875
455,4060,5.499854643501084,0.29287109375
456,4068,5.499854643501084,0.29374999999999996
457,4077,5.499854643501084,0.2947265625
458,4086,5.614029546791084,0.29560546875
459,4096,5.614029546791084,0.29658203125
460,4105,5.614029546791084,0.2974609375
461,4115,5.614029546791084,0.29843749999999997
462,4124,5.614029546791084,0.29931640625
463,4132,5.614029546791084,0.3001953125
464,4141,5.614029546791084,0.30107421874999996
465,4150,5.614029546791084,0.30195312500000004
466,4159,5.739944971461084,0.30283203125
467,4168,5.739944971461084,0.3037109375
468,4176,5.739944971461084,0.30458984375000003
