,Time,Force (Newtons),Distance (millimeters)
0,1,0.0074297877228749086,9.765625e-05
1,12,0.0074297877228749086,9.765625e-05
2,20,0.0074297877228749086,9.765625e-05
3,27,0.0074297877228749086,9.765625e-05
4,37,0.0074297877228749086,0.0001953125
5,45,0.0074297877228749086,0.0001953125
6,54,0.0074297877228749086,0.0001953125
7,61,0.0074297877228749086,0.0001953125
8,69,0.0074297877228749086,0.00029296875
9,76,0.007751445842874909,0.00029296875
10,84,0.008061335982874908,0.00029296875
11,91,0.008061335982874908,0.000390625
12,98,0.008061335982874908,0.000390625
13,105,0.008061335982874908,0.00048828125
14,112,0.008061335982874908,0.00048828125
15,119,0.008061335982874908,0.00048828125
16,126,0.008061335982874908,0.0005859375
17,134,0.008061335982874908,0.0005859375
18,140,0.008061335982874908,0.0006835937500000001
19,147,0.008061335982874908,0.0006835937500000001
20,154,0.008061335982874908,0.00078125
21,161,0.008061335982874908,0.0008789062499999999
22,170,0.007531776882874908,0.0008789062499999999
23,177,0.007531776882874908,0.0009765625
24,183,0.0069747591628749085,0.00107421875
25,190,0.0069747591628749085,0.00107421875
26,199,0.0069747591628749085,0.001171875
27,206,0.0069747591628749085,0.00126953125
28,213,0.0069747591628749085,0.0013671875000000001
29,221,0.0069747591628749085,0.0013671875000000001
30,227,0.0069747591628749085,0.00146484375
31,235,0.0069747591628749085,0.0015625
32,243,0.0069747591628749085,0.0016601562500000002
33,249,0.0069747591628749085,0.0017578124999999998
34,257,0.0069747591628749085,0.00185546875
35,267,0.0069747591628749085,0.001953125
36,276,0.0035708709478749086,0.00205078125
37,285,0.0035708709478749086,0.0021484375
38,293,0.0035708709478749086,0.0022460937500000003
39,302,0.0035708709478749086,0.00244140625
40,309,0.0035708709478749086,0.0025390625
41,317,0.0035708709478749086,0.00263671875
42,324,0.0035708709478749086,0.0027343750000000003
43,330,0.0035708709478749086,0.00283203125
44,385,0.0003886130228749086,0.0037109375
45,400,0.0003886130228749086,0.00400390625
46,407,0.0003886130228749086,0.00419921875
47,415,0.0003886130228749086,0.004296875
48,422,0.0003886130228749086,0.0044921875000000005
49,430,0.0003886130228749086,0.004589843749999999
50,437,0.0003886130228749086,0.00478515625
51,443,0.0003886130228749086,0.0048828125
52,451,0.0003886130228749086,0.00498046875
53,458,0.0003886130228749086,0.005175781250000001
54,465,-0.0006705051771250913,0.0052734375
55,473,-0.0016658801521250912,0.0054687500000000005
56,480,-0.0016658801521250912,0.0056640625
57,489,-0.0016658801521250912,0.005859375
58,496,-0.0016658801521250912,0.00595703125
59,504,-0.0016658801521250912,0.00615234375
60,510,-0.0016658801521250912,0.00634765625
61,518,-0.0016658801521250912,0.00654296875
62,525,-0.0016658801521250912,0.006640625000000001
63,533,-0.0016658801521250912,0.0068359375
64,540,-0.0016658801521250912,0.007031249999999999
65,547,-0.0016658801521250912,0.0072265625
66,555,-0.0016658801521250912,0.007421875
67,562,-0.0010608098471250912,0.007617187500000001
68,569,-0.00033511774712509135,0.0078125
69,577,-0.00033511774712509135,0.0080078125
70,584,-0.00033511774712509135,0.008105468749999999
71,591,-0.00033511774712509135,0.0083984375
72,600,-0.00033511774712509135,0.00859375
73,608,-0.00033511774712509135,0.0087890625
74,615,-0.00033511774712509135,0.008984375000000001
75,621,-0.00033511774712509135,0.009179687499999999
76,628,-0.00033511774712509135,0.009375
77,637,-0.00033511774712509135,0.0095703125
78,644,-0.00033511774712509135,0.00986328125
79,653,-0.00033511774712509135,0.01005859375
80,660,0.005534162277874908,0.01025390625
81,669,0.005534162277874908,0.010546875
82,676,0.005534162277874908,0.0107421875
83,685,0.005534162277874908,0.011035156249999999
84,692,0.005534162277874908,0.01123046875
85,702,0.005534162277874908,0.011523437499999999
86,708,0.005534162277874908,0.01181640625
87,717,0.005534162277874908,0.012109375
88,725,0.005534162277874908,0.0123046875
89,732,0.005534162277874908,0.01259765625
90,740,0.005534162277874908,0.012792968750000001
91,747,0.005534162277874908,0.01298828125
92,755,0.00981084234287491,0.013281250000000001
93,763,0.01427188742787491,0.013574218749999999
94,772,0.01427188742787491,0.0138671875
95,779,0.01427188742787491,0.01416015625
96,788,0.01427188742787491,0.014453125
97,795,0.01427188742787491,0.0146484375
98,804,0.01427188742787491,0.0150390625
99,812,0.01427188742787491,0.015332031250000001
100,821,0.01427188742787491,0.015625
101,827,0.01427188742787491,0.015820312500000003
102,836,0.01427188742787491,0.016210937499999998
103,843,0.01427188742787491,0.01650390625
104,852,0.020288267202874907,0.016796875
105,860,0.026388984167874906,0.01708984375
106,912,0.026388984167874906,0.019140625
107,929,0.026388984167874906,0.019824218749999997
108,937,0.026388984167874906,0.02021484375
109,945,0.026388984167874906,0.0205078125
110,953,0.0421590580328749,0.020898437500000002
111,961,0.0421590580328749,0.02119140625
112,969,0.0421590580328749,0.021484375
113,976,0.0421590580328749,0.021875000000000002
114,984,0.0421590580328749,0.02216796875
115,992,0.0421590580328749,0.02255859375
116,1000,0.0421590580328749,0.0228515625
117,1009,0.0421590580328749,0.023242187499999997
118,1016,0.0421590580328749,0.0236328125
119,1024,0.0421590580328749,0.02392578125
120,1031,0.0421590580328749,0.024316406250000002
121,1039,0.0421590580328749,0.024609375
122,1045,0.05166464387787491,0.02490234375
123,1054,0.061517385132874906,0.025390625
124,1061,0.061517385132874906,0.025683593749999997
125,1070,0.061517385132874906,0.02607421875
126,1076,0.061517385132874906,0.0263671875
127,1085,0.061517385132874906,0.026757812500000002
128,1091,0.061517385132874906,0.027148437499999997
129,1099,0.061517385132874906,0.0275390625
130,1106,0.061517385132874906,0.02783203125
131,1114,0.061517385132874906,0.028222656250000002
132,1122,0.061517385132874906,0.02861328125
133,1130,0.061517385132874906,0.029003906250000003
134,1137,0.061517385132874906,0.029394531249999998
135,1146,0.0726371455678749,0.02978515625
136,1154,0.0839775556278749,0.03017578125
137,1161,0.0839775556278749,0.030566406249999997
138,1170,0.0839775556278749,0.0310546875
139,1177,0.0839775556278749,0.0314453125
140,1185,0.0839775556278749,0.031835937499999994
141,1192,0.0839775556278749,0.0322265625
142,1200,0.0839775556278749,0.0326171875
143,1207,0.0839775556278749,0.0330078125
144,1215,0.0839775556278749,0.0333984375
145,1222,0.0839775556278749,0.0337890625
146,1229,0.0839775556278749,0.0341796875
147,1238,0.0960436577878749,0.03466796875
148,1245,0.0960436577878749,0.03505859375
149,1254,0.1083823848178749,0.035546875
150,1262,0.1083823848178749,0.035937500000000004
151,1270,0.1083823848178749,0.03642578125
152,1278,0.1083823848178749,0.0369140625
153,1287,0.1083823848178749,0.03740234375
154,1293,0.1083823848178749,0.03779296875
155,1302,0.1083823848178749,0.03828125
156,1309,0.1083823848178749,0.038671875
157,1318,0.1083823848178749,0.039160156249999994
158,1325,0.1083823848178749,0.03955078125
159,1332,0.1212644002578749,0.03994140625
160,1340,0.1212644002578749,0.0404296875
161,1347,0.1344484605178749,0.040917968750000006
162,1355,0.1344484605178749,0.041406250000000006
163,1363,0.1344484605178749,0.041796875000000004
164,1371,0.1344484605178749,0.04228515625
165,1379,0.1344484605178749,0.0427734375
166,1388,0.1344484605178749,0.043359375000000006
167,1395,0.1344484605178749,0.043750000000000004
168,1404,0.1344484605178749,0.0443359375
169,1411,0.1344484605178749,0.0447265625
170,1419,0.1344484605178749,0.0453125
171,1427,0.1344484605178749,0.045800781250000006
172,1436,0.1486298570828749,0.046289062500000006
173,1443,0.16307603319787492,0.04677734375
174,1451,0.16307603319787492,0.047265625
175,1459,0.16307603319787492,0.0478515625
176,1467,0.16307603319787492,0.04833984375
177,1475,0.16307603319787492,0.048828125
178,1483,0.16307603319787492,0.04931640625
179,1491,0.16307603319787492,0.04990234375
180,1499,0.16307603319787492,0.050390625
181,1507,0.16307603319787492,0.050976562499999996
182,1515,0.16307603319787492,0.051464843749999996
183,1522,0.16307603319787492,0.051953125
184,1530,0.17907067934787493,0.05244140625
185,1538,0.17907067934787493,0.05302734375
186,1546,0.19543993952787492,0.053515625000000004
187,1555,0.19543993952787492,0.05419921875
188,1563,0.19543993952787492,0.0546875
189,1572,0.19543993952787492,0.05537109375
190,1580,0.19543993952787492,0.055859374999999996
191,1588,0.19543993952787492,0.056445312500000004
192,1596,0.19543993952787492,0.05693359375
193,1604,0.19543993952787492,0.0576171875
194,1612,0.19543993952787492,0.05810546875
195,1621,0.2132566612478749,0.058789062499999996
196,1629,0.2132566612478749,0.059375
197,1638,0.23158627076287489,0.0599609375
198,1646,0.23158627076287489,0.060546875
199,1655,0.23158627076287489,0.061230468749999996
200,1662,0.23158627076287489,0.06171875
201,1670,0.23158627076287489,0.0623046875
202,1678,0.23158627076287489,0.062890625
203,1687,0.23158627076287489,0.06357421875
204,1695,0.23158627076287489,0.06416015625
205,1703,0.23158627076287489,0.06474609375
206,1711,0.23158627076287489,0.06533203125
207,1719,0.2505131052628749,0.06591796875
208,1727,0.2505131052628749,0.0666015625
209,1736,0.2699116396278749,0.0671875
210,1743,0.2699116396278749,0.0677734375
211,1752,0.2699116396278749,0.06845703125
212,1760,0.2699116396278749,0.06904296875
213,1769,0.2699116396278749,0.06972656249999999
214,1776,0.2699116396278749,0.0703125
215,1785,0.2699116396278749,0.07099609374999999
216,1793,0.2699116396278749,0.0716796875
217,1802,0.2699116396278749,0.07236328125
218,1809,0.2699116396278749,0.07294921875
219,1818,0.2897436279228749,0.0736328125
220,1826,0.2897436279228749,0.07421875
221,1835,0.31005810339787493,0.075
222,1842,0.31005810339787493,0.0755859375
223,1851,0.31005810339787493,0.07626953125
224,1860,0.31005810339787493,0.076953125
225,1868,0.31005810339787493,0.07763671875
226,1875,0.31005810339787493,0.07822265625
227,1884,0.31005810339787493,0.07890625
228,1891,0.31005810339787493,0.07958984375
229,1900,0.31005810339787493,0.0802734375
230,1907,0.31005810339787493,0.080859375
231,1915,0.3308021101428749,0.08154296875
232,1923,0.3308021101428749,0.0822265625
233,1931,0.3520344880578749,0.08291015625
234,1939,0.3520344880578749,0.08359375000000001
235,1947,0.3520344880578749,0.08427734375000001
236,1955,0.3520344880578749,0.0849609375
237,1963,0.3520344880578749,0.08564453124999999
238,1972,0.3520344880578749,0.08642578125
239,1979,0.3520344880578749,0.08701171875
240,1988,0.3520344880578749,0.08779296875
241,1996,0.3520344880578749,0.08847656250000001
242,2005,0.3520344880578749,0.0892578125
243,2013,0.37305406166787486,0.0900390625
244,2022,0.37305406166787486,0.09072265624999999
245,2029,0.39450316654787493,0.09140625
246,2038,0.39450316654787493,0.09218749999999999
247,2046,0.39450316654787493,0.09296874999999999
248,2055,0.39450316654787493,0.09375
249,2063,0.39450316654787493,0.09443359375
250,2072,0.39450316654787493,0.09521484375
251,2079,0.39450316654787493,0.0958984375
252,2088,0.39450316654787493,0.0966796875
253,2095,0.39450316654787493,0.09736328125
254,2104,0.41571887315787487,0.09814453125
255,2112,0.41571887315787487,0.09892578125000001
256,2121,0.41571887315787487,0.09970703125000001
257,2129,0.43735626571787484,0.10048828124999999
258,2138,0.43735626571787484,0.10126953124999999
259,2145,0.43735626571787484,0.10205078125
260,2154,0.43735626571787484,0.10283203125
261,2162,0.43735626571787484,0.10361328125
262,2171,0.43735626571787484,0.10439453124999999
263,2179,0.43735626571787484,0.1052734375
264,2188,0.43735626571787484,0.1060546875
265,2196,0.43735626571787484,0.10683593749999999
266,2205,0.4585229390778749,0.10771484375
267,2213,0.4585229390778749,0.10849609375
268,2222,0.4585229390778749,0.10927734374999999
269,2229,0.48011914370787484,0.11005859374999999
270,2238,0.48011914370787484,0.1109375
271,2247,0.48011914370787484,0.11171874999999999
272,2255,0.48011914370787484,0.11249999999999999
273,2263,0.48011914370787484,0.11337890625
274,2273,0.48011914370787484,0.1142578125
275,2281,0.48011914370787484,0.11513671874999999
276,2290,0.48011914370787484,0.11601562500000001
277,2300,0.5003669339628749,0.11699218750000001
278,2309,0.5003669339628749,0.11796875
279,2319,0.5003669339628749,0.1189453125
280,2327,0.5209324596778748,0.1197265625
281,2336,0.5209324596778748,0.120703125
282,2344,0.5209324596778748,0.12148437499999999
283,2397,0.5407644479728749,0.1267578125
284,2414,0.5407644479728749,0.12841796875
285,2423,0.5612632884678749,0.12939453125
286,2432,0.5612632884678749,0.1302734375
287,2441,0.5612632884678749,0.13115234375
288,2450,0.5612632884678749,0.13203125
289,2458,0.5612632884678749,0.1328125
290,2468,0.5612632884678749,0.1337890625
291,2477,0.5612632884678749,0.134765625
292,2488,0.5822436354778748,0.1357421875
293,2497,0.5822436354778748,0.13671875
294,2505,0.5822436354778748,0.13759765625
295,2514,0.5822436354778748,0.1384765625
296,2523,0.6040330311128749,0.13935546875
297,2532,0.6040330311128749,0.140234375
298,2541,0.6040330311128749,0.14111328125
299,2550,0.6040330311128749,0.14208984375
300,2559,0.6040330311128749,0.14296875
301,2568,0.6040330311128749,0.14384765625
302,2577,0.6040330311128749,0.1447265625
303,2585,0.6257508382028749,0.1455078125
304,2594,0.6257508382028749,0.146484375
305,2603,0.6257508382028749,0.14736328125
306,2612,0.6257508382028749,0.1482421875
307,2621,0.6482247380078747,0.14912109375
308,2630,0.6482247380078747,0.15
309,2639,0.6482247380078747,0.15087890625
310,2647,0.6482247380078747,0.15166015624999998
311,2656,0.6482247380078747,0.15263671875
312,2665,0.6482247380078747,0.15341796875000002
313,2673,0.6482247380078747,0.15439453125
314,2682,0.6711124784428747,0.1552734375
315,2691,0.6711124784428747,0.15615234375
316,2700,0.6711124784428747,0.15703124999999998
317,2709,0.6711124784428747,0.15791015625000002
318,2718,0.6950760083828748,0.15888671875
319,2727,0.6950760083828748,0.159765625
320,2736,0.6950760083828748,0.16064453125
321,2745,0.6950760083828748,0.16152343749999998
322,2754,0.6950760083828748,0.1625
323,2763,0.6950760083828748,0.16337890625
324,2773,0.6950760083828748,0.1642578125
325,2781,0.7196181306728748,0.16513671875
326,2790,0.7196181306728748,0.166015625
327,2798,0.7196181306728748,0.16679687499999998
328,2808,0.7196181306728748,0.16787109375
329,2817,0.7447908205578748,0.16875
330,2826,0.7447908205578748,0.16962890625000002
331,2836,0.7447908205578748,0.17060546875
332,2844,0.7447908205578748,0.171484375
333,2854,0.7447908205578748,0.1724609375
334,2862,0.7447908205578748,0.17324218749999998
335,2873,0.7693505948178748,0.17431640625
336,2882,0.7693505948178748,0.17529296875
337,2891,0.7693505948178748,0.17617187499999998
338,2901,0.7693505948178748,0.1771484375
339,2909,0.7945987959078749,0.1779296875
340,2919,0.7945987959078749,0.17890625
341,2927,0.7945987959078749,0.1796875
342,2936,0.7945987959078749,0.18056640624999998
343,2945,0.7945987959078749,0.18154296875
344,2954,0.7945987959078749,0.182421875
345,2962,0.7945987959078749,0.18320312500000002
346,2972,0.8200696079528748,0.18427734375000002
347,2981,0.8200696079528748,0.18515625000000002
348,2991,0.8200696079528748,0.1861328125
349,3000,0.8200696079528748,0.18701171875
350,3009,0.8463249519978748,0.18798828125
351,3018,0.8463249519978748,0.1888671875
352,3027,0.8463249519978748,0.18974609375
353,3036,0.8463249519978748,0.19052734375000002
354,3044,0.8463249519978748,0.19140625
355,3054,0.8463249519978748,0.19248046875000002
356,3063,0.8463249519978748,0.193359375
357,3073,0.8721007508578749,0.19423828125
358,3083,0.8721007508578749,0.1953125
359,3091,0.8721007508578749,0.19609374999999998
360,3099,0.8721007508578749,0.19697265625000002
361,3108,0.8983129456428748,0.19785156250000002
362,3118,0.8983129456428748,0.198828125
363,3126,0.8983129456428748,0.199609375
364,3136,0.8983129456428748,0.20058593749999998
365,3144,0.8983129456428748,0.20146484374999998
366,3154,0.8983129456428748,0.20244140625
367,3162,0.9238563268978748,0.20322265625
368,3172,0.9238563268978748,0.20419921875
369,3180,0.9238563268978748,0.205078125
370,3189,0.9238563268978748,0.20595703125
371,3199,0.9238563268978748,0.2068359375
372,3208,0.9505078596028749,0.2078125
373,3216,0.9505078596028749,0.20869140625000002
374,3225,0.9505078596028749,0.20957031250000002
375,3234,0.9505078596028749,0.21044921875
376,3243,0.9505078596028749,0.211328125
377,3251,0.9505078596028749,0.212109375
378,3260,0.9771946962478748,0.21298828125
379,3268,0.9771946962478748,0.2138671875
380,3324,1.0046827361978747,0.21904296875
381,3337,1.0046827361978747,0.220703125
382,3345,1.0046827361978747,0.221484375
383,3354,1.0046827361978747,0.2224609375
384,3362,1.030975345512875,0.22314453125
385,3371,1.030975345512875,0.22412109375
386,3378,1.030975345512875,0.22490234375
387,3388,1.030975345512875,0.22578125000000002
388,3395,1.030975345512875,0.2265625
389,3404,1.0579632463128747,0.22744140624999998
390,3412,1.0579632463128747,0.22822265625000002
391,3422,1.0579632463128747,0.22919921875
392,3431,1.0579632463128747,0.230078125
393,3439,1.0579632463128747,0.23095703125
394,3448,1.0579632463128747,0.23183593749999998
395,3457,1.0849540891078748,0.23271484374999998
396,3465,1.0849540891078748,0.23349609375
397,3473,1.0849540891078748,0.234375
398,3482,1.0849540891078748,0.23525390625
399,3491,1.0849540891078748,0.2361328125
400,3499,1.113448291347875,0.23691406250000002
401,3508,1.113448291347875,0.237890625
402,3519,1.113448291347875,0.23896484375
403,3528,1.113448291347875,0.23984375
404,3537,1.113448291347875,0.24072265625
405,3545,1.113448291347875,0.24150390625
406,3554,1.1420425214178749,0.2423828125
407,3562,1.1420425214178749,0.2431640625
408,3571,1.1420425214178749,0.244140625
409,3579,1.1420425214178749,0.24492187499999998
410,3588,1.1420425214178749,0.24580078125000002
411,3596,1.1715723058978749,0.24658203125
412,3604,1.1715723058978749,0.2474609375
413,3613,1.1715723058978749,0.24833984375
414,3621,1.1715723058978749,0.24912109375000002
415,3631,1.1715723058978749,0.25009765625
416,3639,1.1715723058978749,0.25087890625000003
417,3647,1.2009216480178748,0.2517578125
418,3655,1.2009216480178748,0.2525390625
419,3664,1.2009216480178748,0.25341796875
420,3673,1.2009216480178748,0.254296875
421,3683,1.2009216480178748,0.2552734375
422,3691,1.2009216480178748,0.25615234375
423,3700,1.2320538391078748,0.25703125
424,3709,1.2320538391078748,0.25791015625
425,3719,1.2320538391078748,0.25888671875
426,3727,1.2320538391078748,0.25966796875
427,3735,1.2320538391078748,0.260546875
428,3744,1.264356944207875,0.26142578125
429,3752,1.264356944207875,0.26220703125
430,3761,1.264356944207875,0.26308593750000003
431,3770,1.264356944207875,0.26396484375
432,3778,1.264356944207875,0.26484375
433,3787,1.264356944207875,0.26572265625
434,3795,1.2986115726578749,0.26650390625
435,3803,1.2986115726578749,0.2673828125
436,3812,1.2986115726578749,0.2681640625
437,3820,1.2986115726578749,0.26904296875
438,3830,1.2986115726578749,0.27001953125
439,3838,1.3328730657628747,0.27080078125
440,3847,1.3328730657628747,0.2716796875
441,3855,1.3328730657628747,0.27255859375
442,3864,1.3328730657628747,0.2734375
443,3872,1.3328730657628747,0.27421874999999996
444,3880,1.3328730657628747,0.275
445,3889,1.3684231526778747,0.2759765625
446,3898,1.3684231526778747,0.27685546875
447,3906,1.3684231526778747,0.27763671875
448,3914,1.3684231526778747,0.27841796875
449,3923,1.3684231526778747,0.27939453125
450,3932,1.4046940283678748,0.2802734375
451,3941,1.4046940283678748,0.28115234375
452,3951,1.4046940283678748,0.28203125
453,3959,1.4046940283678748,0.28291015625
454,3968,1.4046940283678748,0.28388671875
455,3977,1.4046940283678748,0.28466796875
456,3986,1.444034385507875,0.285546875
457,3994,1.444034385507875,0.28642578124999996
458,4003,1.444034385507875,0.28730468750000004
459,4011,1.444034385507875,0.2880859375
460,4020,1.444034385507875,0.28896484375
461,4028,1.484812397537875,0.28984375
